#K-Path          Energy     s     py     pz     px    dxy    dyz    dz2    dxz  x2-y2    tot
# NKPTS & NBANDS: 240  24
# Band-Index    1
   0.00000    -15.006217  0.003  0.000  0.000  0.000  0.000  0.000  0.000  0.000  0.000  0.003
   0.00744    -15.006213  0.003  0.000  0.000  0.000  0.000  0.000  0.000  0.000  0.000  0.003
   0.01488    -15.006196  0.003  0.000  0.000  0.000  0.000  0.000  0.000  0.000  0.000  0.003
   0.02232    -15.006171  0.003  0.000  0.000  0.000  0.000  0.000  0.000  0.000  0.000  0.003
   0.02976    -15.006129  0.003  0.000  0.000  0.000  0.000  0.000  0.000  0.000  0.000  0.003
   0.03720    -15.006074  0.003  0.000  0.000  0.000  0.000  0.000  0.000  0.000  0.000  0.003
   0.04464    -15.006007  0.003  0.000  0.000  0.000  0.000  0.000  0.000  0.000  0.000  0.003
   0.05208    -15.005928  0.003  0.000  0.000  0.000  0.000  0.000  0.000  0.000  0.000  0.003
   0.05952    -15.005836  0.003  0.000  0.000  0.000  0.000  0.000  0.000  0.000  0.000  0.003
   0.06696    -15.005742  0.003  0.000  0.000  0.000  0.000  0.000  0.000  0.000  0.000  0.003
   0.07440    -15.005633  0.003  0.000  0.000  0.000  0.000  0.000  0.000  0.000  0.000  0.003
   0.08184    -15.005508  0.003  0.000  0.000  0.000  0.000  0.000  0.000  0.000  0.000  0.003
   0.08928    -15.005386  0.003  0.000  0.000  0.000  0.000  0.000  0.000  0.000  0.000  0.003
   0.09672    -15.005238  0.003  0.000  0.000  0.000  0.000  0.000  0.000  0.000  0.000  0.003
   0.10416    -15.005084  0.003  0.000  0.000  0.000  0.000  0.000  0.000  0.000  0.000  0.003
   0.11160    -15.004920  0.002  0.000  0.000  0.000  0.000  0.000  0.000  0.000  0.000  0.003
   0.11904    -15.004747  0.002  0.000  0.000  0.000  0.000  0.000  0.000  0.000  0.000  0.002
   0.12648    -15.004565  0.002  0.000  0.000  0.000  0.000  0.000  0.000  0.000  0.000  0.002
   0.13392    -15.004375  0.002  0.000  0.000  0.000  0.000  0.000  0.000  0.000  0.000  0.002
   0.14136    -15.004182  0.002  0.000  0.000  0.000  0.000  0.000  0.000  0.000  0.000  0.002
   0.14880    -15.003977  0.002  0.000  0.000  0.000  0.000  0.000  0.000  0.000  0.000  0.002
   0.15624    -15.003766  0.002  0.000  0.000  0.000  0.000  0.000  0.000  0.000  0.000  0.002
   0.16368    -15.003542  0.002  0.000  0.000  0.000  0.000  0.000  0.000  0.000  0.000  0.002
   0.17112    -15.003324  0.002  0.000  0.000  0.000  0.000  0.000  0.000  0.000  0.000  0.002
   0.17856    -15.003092  0.002  0.000  0.000  0.000  0.000  0.000  0.000  0.000  0.000  0.002
   0.18600    -15.002866  0.002  0.000  0.000  0.000  0.000  0.000  0.000  0.000  0.000  0.002
   0.19344    -15.002636  0.002  0.000  0.000  0.000  0.000  0.000  0.000  0.000  0.000  0.002
   0.20088    -15.002406  0.002  0.000  0.000  0.000  0.000  0.000  0.000  0.000  0.000  0.002
   0.20832    -15.002172  0.002  0.000  0.000  0.000  0.000  0.000  0.000  0.000  0.000  0.002
   0.21575    -15.001936  0.001  0.000  0.000  0.000  0.000  0.000  0.000  0.000  0.000  0.002
   0.22319    -15.001699  0.001  0.000  0.000  0.000  0.000  0.000  0.000  0.000  0.000  0.002
   0.23063    -15.001462  0.001  0.000  0.000  0.000  0.000  0.000  0.000  0.000  0.000  0.001
   0.23807    -15.001228  0.001  0.000  0.000  0.000  0.000  0.000  0.000  0.000  0.000  0.001
   0.24551    -15.000995  0.001  0.000  0.000  0.000  0.000  0.000  0.000  0.000  0.000  0.001
   0.25295    -15.000764  0.001  0.000  0.000  0.000  0.000  0.000  0.000  0.000  0.000  0.001
   0.26039    -15.000535  0.001  0.000  0.000  0.000  0.000  0.000  0.000  0.000  0.000  0.001
   0.26783    -15.000311  0.001  0.000  0.000  0.000  0.000  0.000  0.000  0.000  0.000  0.001
   0.27527    -15.000081  0.001  0.000  0.000  0.000  0.000  0.000  0.000  0.000  0.000  0.001
   0.28271    -14.999865  0.001  0.000  0.000  0.000  0.000  0.000  0.000  0.000  0.000  0.001
   0.29015    -14.999654  0.001  0.000  0.000  0.000  0.000  0.000  0.000  0.000  0.000  0.001
   0.29759    -14.999449  0.001  0.000  0.000  0.000  0.000  0.000  0.000  0.000  0.000  0.001
   0.30503    -14.999250  0.001  0.000  0.000  0.000  0.000  0.000  0.000  0.000  0.000  0.001
   0.31247    -14.999058  0.001  0.000  0.000  0.000  0.000  0.000  0.000  0.000  0.000  0.001
   0.31991    -14.998874  0.000  0.000  0.000  0.000  0.000  0.000  0.000  0.000  0.000  0.001
   0.32735    -14.998698  0.000  0.000  0.000  0.000  0.000  0.000  0.000  0.000  0.000  0.001
   0.33479    -14.998533  0.000  0.000  0.000  0.000  0.000  0.000  0.000  0.000  0.000  0.001
   0.34223    -14.998377  0.000  0.000  0.000  0.000  0.000  0.000  0.000  0.000  0.000  0.001
   0.34967    -14.998230  0.000  0.000  0.000  0.000  0.000  0.000  0.000  0.000  0.000  0.001
   0.35711    -14.998094  0.000  0.000  0.000  0.000  0.000  0.000  0.000  0.000  0.000  0.000
   0.36455    -14.997967  0.000  0.000  0.000  0.000  0.000  0.000  0.000  0.000  0.000  0.000
   0.37199    -14.997858  0.000  0.000  0.000  0.000  0.000  0.000  0.000  0.000  0.000  0.000
   0.37943    -14.997752  0.000  0.000  0.000  0.000  0.000  0.000  0.000  0.000  0.000  0.000
   0.38687    -14.997658  0.000  0.000  0.000  0.000  0.000  0.000  0.000  0.000  0.000  0.000
   0.39431    -14.997577  0.000  0.000  0.000  0.000  0.000  0.000  0.000  0.000  0.000  0.000
   0.40175    -14.997509  0.000  0.000  0.000  0.000  0.000  0.000  0.000  0.000  0.000  0.000
   0.40919    -14.997453  0.000  0.000  0.000  0.000  0.000  0.000  0.000  0.000  0.000  0.000
   0.41663    -14.997409  0.000  0.000  0.000  0.000  0.000  0.000  0.000  0.000  0.000  0.000
   0.42407    -14.997378  0.000  0.000  0.000  0.000  0.000  0.000  0.000  0.000  0.000  0.000
   0.43151    -14.997373  0.000  0.000  0.000  0.000  0.000  0.000  0.000  0.000  0.000  0.000
   0.43895    -14.997368  0.000  0.000  0.000  0.000  0.000  0.000  0.000  0.000  0.000  0.000
   0.43895    -14.997368  0.000  0.000  0.000  0.000  0.000  0.000  0.000  0.000  0.000  0.000
   0.45788    -14.997078  0.000  0.000  0.000  0.000  0.000  0.000  0.000  0.000  0.000  0.000
   0.47681    -14.996230  0.000  0.000  0.000  0.000  0.000  0.000  0.000  0.000  0.000  0.000
   0.49574    -14.994828  0.000  0.000  0.000  0.000  0.000  0.000  0.000  0.000  0.000  0.000
   0.51467    -14.992875  0.000  0.000  0.000  0.000  0.000  0.000  0.000  0.000  0.000  0.000
   0.53360    -14.990377  0.000  0.000  0.000  0.000  0.000  0.000  0.000  0.000  0.000  0.000
   0.55253    -14.987326  0.000  0.000  0.000  0.000  0.000  0.000  0.000  0.000  0.000  0.000
   0.57146    -14.983732  0.000  0.000  0.000  0.000  0.000  0.000  0.000  0.000  0.000  0.000
   0.59039    -14.979598  0.000  0.000  0.000  0.000  0.000  0.000  0.000  0.000  0.000  0.001
   0.60932    -14.974928  0.000  0.000  0.000  0.000  0.000  0.000  0.000  0.000  0.000  0.001
   0.62825    -14.969728  0.001  0.000  0.000  0.000  0.000  0.000  0.000  0.000  0.000  0.001
   0.64718    -14.964002  0.001  0.000  0.000  0.000  0.000  0.000  0.000  0.000  0.000  0.001
   0.66611    -14.957766  0.001  0.000  0.000  0.000  0.000  0.000  0.000  0.000  0.000  0.001
   0.68504    -14.951023  0.001  0.000  0.000  0.000  0.000  0.000  0.000  0.000  0.000  0.001
   0.70397    -14.943785  0.001  0.000  0.000  0.000  0.000  0.000  0.000  0.000  0.000  0.001
   0.72290    -14.936073  0.001  0.000  0.000  0.000  0.000  0.000  0.000  0.000  0.000  0.001
   0.74183    -14.927902  0.001  0.000  0.000  0.000  0.000  0.000  0.000  0.000  0.000  0.001
   0.76076    -14.919276  0.001  0.000  0.000  0.000  0.000  0.000  0.000  0.000  0.000  0.001
   0.77969    -14.910212  0.001  0.000  0.000  0.000  0.000  0.000  0.000  0.000  0.000  0.001
   0.79862    -14.900732  0.001  0.000  0.000  0.000  0.000  0.000  0.000  0.000  0.000  0.001
   0.81755    -14.890848  0.001  0.000  0.000  0.000  0.000  0.000  0.000  0.000  0.000  0.002
   0.83648    -14.880581  0.002  0.000  0.000  0.000  0.000  0.000  0.000  0.000  0.000  0.002
   0.85541    -14.869958  0.002  0.000  0.000  0.000  0.000  0.000  0.000  0.000  0.000  0.002
   0.87434    -14.858990  0.002  0.000  0.000  0.000  0.000  0.000  0.000  0.000  0.000  0.002
   0.89327    -14.847721  0.002  0.000  0.000  0.000  0.000  0.000  0.000  0.000  0.000  0.002
   0.91220    -14.836173  0.002  0.000  0.000  0.000  0.000  0.000  0.000  0.000  0.000  0.002
   0.93113    -14.824372  0.002  0.000  0.000  0.000  0.000  0.000  0.000  0.000  0.000  0.002
   0.95005    -14.812342  0.002  0.000  0.000  0.000  0.000  0.000  0.000  0.000  0.000  0.002
   0.96898    -14.800118  0.002  0.000  0.000  0.000  0.000  0.000  0.000  0.000  0.000  0.002
   0.98791    -14.787728  0.002  0.000  0.000  0.000  0.000  0.000  0.000  0.000  0.000  0.002
   1.00684    -14.775214  0.002  0.000  0.000  0.000  0.000  0.000  0.000  0.000  0.000  0.002
   1.02577    -14.762608  0.002  0.000  0.000  0.000  0.000  0.000  0.000  0.000  0.000  0.002
   1.04470    -14.749953  0.002  0.000  0.000  0.000  0.000  0.000  0.000  0.000  0.000  0.002
   1.06363    -14.737271  0.002  0.000  0.000  0.000  0.000  0.000  0.000  0.000  0.000  0.002
   1.08256    -14.724609  0.002  0.000  0.000  0.000  0.000  0.000  0.000  0.000  0.000  0.002
   1.10149    -14.712022  0.002  0.000  0.000  0.000  0.000  0.000  0.000  0.000  0.000  0.002
   1.12042    -14.699531  0.001  0.000  0.000  0.000  0.000  0.000  0.000  0.000  0.000  0.002
   1.13935    -14.687180  0.001  0.000  0.000  0.000  0.000  0.000  0.000  0.000  0.000  0.001
   1.15828    -14.675011  0.001  0.000  0.000  0.000  0.000  0.000  0.000  0.000  0.000  0.001
   1.17721    -14.663066  0.001  0.000  0.000  0.000  0.000  0.000  0.000  0.000  0.000  0.001
   1.19614    -14.651378  0.001  0.000  0.000  0.000  0.000  0.000  0.000  0.000  0.000  0.001
   1.21507    -14.640004  0.001  0.000  0.000  0.000  0.000  0.000  0.000  0.000  0.000  0.001
   1.23400    -14.628972  0.001  0.000  0.000  0.000  0.000  0.000  0.000  0.000  0.000  0.001
   1.25293    -14.618331  0.001  0.000  0.000  0.000  0.000  0.000  0.000  0.000  0.000  0.001
   1.27186    -14.608125  0.001  0.000  0.000  0.000  0.000  0.000  0.000  0.000  0.000  0.001
   1.29079    -14.598375  0.001  0.000  0.000  0.000  0.000  0.000  0.000  0.000  0.000  0.001
   1.30972    -14.589115  0.001  0.000  0.000  0.000  0.000  0.000  0.000  0.000  0.000  0.001
   1.32865    -14.580399  0.001  0.000  0.000  0.000  0.000  0.000  0.000  0.000  0.000  0.001
   1.34758    -14.572249  0.001  0.000  0.000  0.000  0.000  0.000  0.000  0.000  0.000  0.001
   1.36651    -14.564701  0.001  0.000  0.000  0.000  0.000  0.000  0.000  0.000  0.000  0.001
   1.38544    -14.557774  0.001  0.000  0.000  0.000  0.000  0.000  0.000  0.000  0.000  0.001
   1.40437    -14.551505  0.001  0.000  0.000  0.000  0.000  0.000  0.000  0.000  0.000  0.001
   1.42330    -14.545896  0.001  0.000  0.000  0.000  0.000  0.000  0.000  0.000  0.000  0.001
   1.44223    -14.541000  0.000  0.000  0.000  0.000  0.000  0.000  0.000  0.000  0.000  0.001
   1.46116    -14.536809  0.000  0.000  0.000  0.000  0.000  0.000  0.000  0.000  0.000  0.000
   1.48009    -14.533371  0.000  0.000  0.000  0.000  0.000  0.000  0.000  0.000  0.000  0.000
   1.49902    -14.530678  0.000  0.000  0.000  0.000  0.000  0.000  0.000  0.000  0.000  0.000
   1.51795    -14.528756  0.000  0.000  0.000  0.000  0.000  0.000  0.000  0.000  0.000  0.000
   1.53688    -14.527621  0.000  0.000  0.000  0.000  0.000  0.000  0.000  0.000  0.000  0.000
   1.55581    -14.527237  0.000  0.000  0.000  0.000  0.000  0.000  0.000  0.000  0.000  0.000
   1.55581    -14.527237  0.000  0.000  0.000  0.000  0.000  0.000  0.000  0.000  0.000  0.000
   1.57095    -14.527623  0.000  0.000  0.000  0.000  0.000  0.000  0.000  0.000  0.000  0.000
   1.58609    -14.528769  0.000  0.000  0.000  0.000  0.000  0.000  0.000  0.000  0.000  0.000
   1.60123    -14.530652  0.000  0.000  0.000  0.000  0.000  0.000  0.000  0.000  0.000  0.000
   1.61636    -14.533311  0.000  0.000  0.000  0.000  0.000  0.000  0.000  0.000  0.000  0.000
   1.63150    -14.536712  0.000  0.000  0.000  0.000  0.000  0.000  0.000  0.000  0.000  0.000
   1.64664    -14.540853  0.000  0.000  0.000  0.000  0.000  0.000  0.000  0.000  0.000  0.000
   1.66178    -14.545720  0.000  0.000  0.000  0.000  0.000  0.000  0.000  0.000  0.000  0.000
   1.67692    -14.551264  0.000  0.000  0.000  0.000  0.000  0.000  0.000  0.000  0.000  0.001
   1.69206    -14.557475  0.001  0.000  0.000  0.000  0.000  0.000  0.000  0.000  0.000  0.001
   1.70720    -14.564334  0.001  0.000  0.000  0.000  0.000  0.000  0.000  0.000  0.000  0.001
   1.72234    -14.571809  0.001  0.000  0.000  0.000  0.000  0.000  0.000  0.000  0.000  0.001
   1.73748    -14.579880  0.001  0.000  0.000  0.000  0.000  0.000  0.000  0.000  0.000  0.001
   1.75261    -14.588517  0.001  0.000  0.000  0.000  0.000  0.000  0.000  0.000  0.000  0.001
   1.76775    -14.597684  0.001  0.000  0.000  0.000  0.000  0.000  0.000  0.000  0.000  0.001
   1.78289    -14.607342  0.001  0.000  0.000  0.000  0.000  0.000  0.000  0.000  0.000  0.001
   1.79803    -14.617471  0.001  0.000  0.000  0.000  0.000  0.000  0.000  0.000  0.000  0.001
   1.81317    -14.628031  0.001  0.000  0.000  0.000  0.000  0.000  0.000  0.000  0.000  0.001
   1.82831    -14.638995  0.001  0.000  0.000  0.000  0.000  0.000  0.000  0.000  0.000  0.001
   1.84345    -14.650303  0.001  0.000  0.000  0.000  0.000  0.000  0.000  0.000  0.000  0.001
   1.85859    -14.661925  0.001  0.000  0.000  0.000  0.000  0.000  0.000  0.000  0.000  0.001
   1.87373    -14.673821  0.001  0.000  0.000  0.000  0.000  0.000  0.000  0.000  0.000  0.001
   1.88886    -14.685953  0.001  0.000  0.000  0.000  0.000  0.000  0.000  0.000  0.000  0.001
   1.90400    -14.698284  0.001  0.000  0.000  0.000  0.000  0.000  0.000  0.000  0.000  0.001
   1.91914    -14.710780  0.001  0.000  0.000  0.000  0.000  0.000  0.000  0.000  0.000  0.001
   1.93428    -14.723393  0.001  0.000  0.000  0.000  0.000  0.000  0.000  0.000  0.000  0.001
   1.94942    -14.736100  0.001  0.000  0.000  0.000  0.000  0.000  0.000  0.000  0.000  0.001
   1.96456    -14.748854  0.001  0.000  0.000  0.000  0.000  0.000  0.000  0.000  0.000  0.001
   1.97970    -14.761627  0.001  0.000  0.000  0.000  0.000  0.000  0.000  0.000  0.000  0.001
   1.99484    -14.774375  0.001  0.000  0.000  0.000  0.000  0.000  0.000  0.000  0.000  0.002
   2.00998    -14.787063  0.002  0.000  0.000  0.000  0.000  0.000  0.000  0.000  0.000  0.002
   2.02511    -14.799654  0.002  0.000  0.000  0.000  0.000  0.000  0.000  0.000  0.000  0.002
   2.04025    -14.812110  0.002  0.000  0.000  0.000  0.000  0.000  0.000  0.000  0.000  0.002
   2.05539    -14.824401  0.002  0.000  0.000  0.000  0.000  0.000  0.000  0.000  0.000  0.002
   2.07053    -14.836498  0.002  0.000  0.000  0.000  0.000  0.000  0.000  0.000  0.000  0.002
   2.08567    -14.848370  0.002  0.000  0.000  0.000  0.000  0.000  0.000  0.000  0.000  0.002
   2.10081    -14.859986  0.002  0.000  0.000  0.000  0.000  0.000  0.000  0.000  0.000  0.002
   2.11595    -14.871316  0.002  0.000  0.000  0.000  0.000  0.000  0.000  0.000  0.000  0.002
   2.13109    -14.882336  0.002  0.000  0.000  0.000  0.000  0.000  0.000  0.000  0.000  0.002
   2.14623    -14.893026  0.002  0.000  0.000  0.000  0.000  0.000  0.000  0.000  0.000  0.002
   2.16136    -14.903348  0.002  0.000  0.000  0.000  0.000  0.000  0.000  0.000  0.000  0.002
   2.17650    -14.913288  0.002  0.000  0.000  0.000  0.000  0.000  0.000  0.000  0.000  0.002
   2.19164    -14.922814  0.002  0.000  0.000  0.000  0.000  0.000  0.000  0.000  0.000  0.002
   2.20678    -14.931911  0.002  0.000  0.000  0.000  0.000  0.000  0.000  0.000  0.000  0.002
   2.22192    -14.940557  0.002  0.000  0.000  0.000  0.000  0.000  0.000  0.000  0.000  0.003
   2.23706    -14.948734  0.003  0.000  0.000  0.000  0.000  0.000  0.000  0.000  0.000  0.003
   2.25220    -14.956420  0.003  0.000  0.000  0.000  0.000  0.000  0.000  0.000  0.000  0.003
   2.26734    -14.963601  0.003  0.000  0.000  0.000  0.000  0.000  0.000  0.000  0.000  0.003
   2.28248    -14.970263  0.003  0.000  0.000  0.000  0.000  0.000  0.000  0.000  0.000  0.003
   2.29761    -14.976394  0.003  0.000  0.000  0.000  0.000  0.000  0.000  0.000  0.000  0.003
   2.31275    -14.981984  0.003  0.000  0.000  0.000  0.000  0.000  0.000  0.000  0.000  0.003
   2.32789    -14.987018  0.003  0.000  0.000  0.000  0.000  0.000  0.000  0.000  0.000  0.003
   2.34303    -14.991484  0.003  0.000  0.000  0.000  0.000  0.000  0.000  0.000  0.000  0.003
   2.35817    -14.995376  0.003  0.000  0.000  0.000  0.000  0.000  0.000  0.000  0.000  0.003
   2.37331    -14.998679  0.003  0.000  0.000  0.000  0.000  0.000  0.000  0.000  0.000  0.003
   2.38845    -15.001388  0.003  0.000  0.000  0.000  0.000  0.000  0.000  0.000  0.000  0.003
   2.40359    -15.003505  0.003  0.000  0.000  0.000  0.000  0.000  0.000  0.000  0.000  0.003
   2.41873    -15.005022  0.003  0.000  0.000  0.000  0.000  0.000  0.000  0.000  0.000  0.003
   2.43386    -15.005926  0.003  0.000  0.000  0.000  0.000  0.000  0.000  0.000  0.000  0.003
   2.44900    -15.006217  0.003  0.000  0.000  0.000  0.000  0.000  0.000  0.000  0.000  0.003
   2.44900    -15.006217  0.003  0.000  0.000  0.000  0.000  0.000  0.000  0.000  0.000  0.003
   2.46352    -15.005928  0.003  0.000  0.000  0.000  0.000  0.000  0.000  0.000  0.000  0.003
   2.47804    -15.005029  0.003  0.000  0.000  0.000  0.000  0.000  0.000  0.000  0.000  0.003
   2.49255    -15.003524  0.003  0.000  0.000  0.000  0.000  0.000  0.000  0.000  0.000  0.003
   2.50707    -15.001423  0.003  0.000  0.000  0.000  0.000  0.000  0.000  0.000  0.000  0.003
   2.52159    -14.998731  0.003  0.000  0.000  0.000  0.000  0.000  0.000  0.000  0.000  0.003
   2.53610    -14.995450  0.003  0.000  0.000  0.000  0.000  0.000  0.000  0.000  0.000  0.003
   2.55062    -14.991592  0.003  0.000  0.000  0.000  0.000  0.000  0.000  0.000  0.000  0.003
   2.56514    -14.987150  0.003  0.000  0.000  0.000  0.000  0.000  0.000  0.000  0.000  0.003
   2.57965    -14.982148  0.003  0.000  0.000  0.000  0.000  0.000  0.000  0.000  0.000  0.003
   2.59417    -14.976591  0.003  0.000  0.000  0.000  0.000  0.000  0.000  0.000  0.000  0.003
   2.60869    -14.970491  0.003  0.000  0.000  0.000  0.000  0.000  0.000  0.000  0.000  0.003
   2.62320    -14.963874  0.003  0.000  0.000  0.000  0.000  0.000  0.000  0.000  0.000  0.003
   2.63772    -14.956734  0.003  0.000  0.000  0.000  0.000  0.000  0.000  0.000  0.000  0.003
   2.65224    -14.949088  0.003  0.000  0.000  0.000  0.000  0.000  0.000  0.000  0.000  0.003
   2.66675    -14.940953  0.003  0.000  0.000  0.000  0.000  0.000  0.000  0.000  0.000  0.003
   2.68127    -14.932348  0.003  0.000  0.000  0.000  0.000  0.000  0.000  0.000  0.000  0.003
   2.69579    -14.923289  0.003  0.000  0.000  0.000  0.000  0.000  0.000  0.000  0.000  0.003
   2.71030    -14.913806  0.002  0.000  0.000  0.000  0.000  0.000  0.000  0.000  0.000  0.002
   2.72482    -14.903907  0.002  0.000  0.000  0.000  0.000  0.000  0.000  0.000  0.000  0.002
   2.73934    -14.893620  0.002  0.000  0.000  0.000  0.000  0.000  0.000  0.000  0.000  0.002
   2.75385    -14.882965  0.002  0.000  0.000  0.000  0.000  0.000  0.000  0.000  0.000  0.002
   2.76837    -14.871971  0.002  0.000  0.000  0.000  0.000  0.000  0.000  0.000  0.000  0.002
   2.78289    -14.860664  0.002  0.000  0.000  0.000  0.000  0.000  0.000  0.000  0.000  0.002
   2.79740    -14.849073  0.002  0.000  0.000  0.000  0.000  0.000  0.000  0.000  0.000  0.002
   2.81192    -14.837225  0.002  0.000  0.000  0.000  0.000  0.000  0.000  0.000  0.000  0.002
   2.82644    -14.825142  0.002  0.000  0.000  0.000  0.000  0.000  0.000  0.000  0.000  0.002
   2.84095    -14.812858  0.002  0.000  0.000  0.000  0.000  0.000  0.000  0.000  0.000  0.002
   2.85547    -14.800407  0.002  0.000  0.000  0.000  0.000  0.000  0.000  0.000  0.000  0.002
